 #  1.  time
 #  2.  Total Energy
 #  3.  Total dE/dt
 #  4.  Drive 1 term
 #  5.  Heat sources (nonlocal)
 #  6.  Collisional Dissipation
 #  7.  hyp_v dissipation
 #  8.  hyp_z dissipation
 #  9.  hyp_x/y dissipation
 #  10. nonlinearity
 #  11. [Poisson err]_z,vpar
 #  12. curvature + remaining terms (if any)
 #  13. (abs(10)+abs(11)+abs(12))/abs(4): test for conservation
 #  14. change in energy: (E(t)-E(t_last_energy_calc))/(dt*istep_energy)
#        1           2           3           4           5           6           7           8           9          10          11          12          13          14
  0.0000E+00  4.9043E-02 -5.0064E-03  0.0000E+00  0.0000E+00  0.0000E+00 -4.8475E-08 -4.6059E-03  0.0000E+00  0.0000E+00 -4.0041E-04  0.0000E+00  0.0000E+00  6.5390E-02
  7.5000E-01  5.9909E-02  2.7696E-02  2.8698E-02  0.0000E+00  0.0000E+00 -7.3748E-06 -7.0133E-04  0.0000E+00  0.0000E+00 -2.9382E-04 -1.0408E-17  1.0238E-02  1.4488E-02
  1.5000E+00  9.1404E-02  5.8001E-02  6.0432E-02  0.0000E+00  0.0000E+00 -5.3226E-05 -2.0033E-03  0.0000E+00  0.0000E+00 -3.7437E-04  6.9389E-18  6.1950E-03  4.1994E-02
  2.2500E+00  1.5016E-01  1.0140E-01  1.0483E-01  0.0000E+00  0.0000E+00 -1.2296E-04 -2.8229E-03  0.0000E+00  0.0000E+00 -4.8521E-04 -1.3878E-17  4.6286E-03  7.8337E-02
  3.0000E+00  2.4849E-01  1.6487E-01  1.6896E-01  0.0000E+00  0.0000E+00 -1.9986E-04 -3.3427E-03  0.0000E+00  0.0000E+00 -5.4898E-04 -5.5511E-17  3.2492E-03  1.3111E-01
  3.7500E+00  4.0502E-01  2.5871E-01  2.6371E-01  0.0000E+00  0.0000E+00 -2.8747E-04 -4.1567E-03  0.0000E+00  0.0000E+00 -5.5396E-04  1.1102E-16  2.1006E-03  2.0870E-01
  4.5000E+00  6.4789E-01  3.9812E-01  4.0489E-01  0.0000E+00  0.0000E+00 -3.9798E-04 -5.7939E-03  0.0000E+00  0.0000E+00 -5.7344E-04 -5.5511E-17  1.4163E-03  3.2383E-01
  5.2500E+00  1.0193E+00  6.0641E-01  6.1649E-01  0.0000E+00  0.0000E+00 -5.5147E-04 -8.7124E-03  0.0000E+00  0.0000E+00 -8.1434E-04 -1.1102E-16  1.3209E-03  4.9522E-01
  6.0000E+00  1.5840E+00  9.2121E-01  9.3701E-01  0.0000E+00  0.0000E+00 -7.7025E-04 -1.3578E-02  0.0000E+00  0.0000E+00 -1.4511E-03  1.1102E-16  1.5487E-03  7.5288E-01
  6.7500E+00  2.4422E+00  1.4013E+00  1.4263E+00  0.0000E+00  0.0000E+00 -1.0861E-03 -2.1298E-02  0.0000E+00  0.0000E+00 -2.5836E-03  4.4409E-16  1.8114E-03  1.1443E+00
  7.5000E+00  3.7496E+00  2.1376E+00  2.1768E+00  0.0000E+00  0.0000E+00 -1.5535E-03 -3.3217E-02  0.0000E+00  0.0000E+00 -4.3955E-03 -4.4409E-16  2.0193E-03  1.7432E+00
  8.2500E+00  5.7466E+00  3.2681E+00  3.3290E+00  0.0000E+00  0.0000E+00 -2.2657E-03 -5.1512E-02  0.0000E+00  0.0000E+00 -7.1235E-03 -2.2204E-15  2.1399E-03  2.6626E+00
  9.0000E+00  8.8016E+00  5.0015E+00  5.0956E+00  0.0000E+00  0.0000E+00 -3.3674E-03 -7.9627E-02  0.0000E+00  0.0000E+00 -1.1152E-02 -8.8818E-16  2.1886E-03  4.0733E+00
  9.7500E+00  1.3477E+01  7.6551E+00  7.8003E+00  0.0000E+00  0.0000E+00 -5.0808E-03 -1.2289E-01  0.0000E+00  0.0000E+00 -1.7250E-02 -8.8818E-16  2.2115E-03  6.2345E+00
  1.0500E+01  2.0633E+01  1.1714E+01  1.1937E+01  0.0000E+00  0.0000E+00 -7.7427E-03 -1.8936E-01  0.0000E+00  0.0000E+00 -2.6741E-02  5.3291E-15  2.2401E-03  9.5411E+00
  1.1250E+01  3.1581E+01  1.7919E+01  1.8264E+01  0.0000E+00  0.0000E+00 -1.1866E-02 -2.9111E-01  0.0000E+00  0.0000E+00 -4.1651E-02  0.0000E+00  2.2805E-03  1.4597E+01
  1.2000E+01  4.8329E+01  2.7411E+01  2.7940E+01  0.0000E+00  0.0000E+00 -1.8230E-02 -4.4650E-01  0.0000E+00  0.0000E+00 -6.4789E-02 -3.5527E-15  2.3188E-03  2.2330E+01
  1.2750E+01  7.3948E+01  4.1934E+01  4.2745E+01  0.0000E+00  0.0000E+00 -2.8017E-02 -6.8351E-01  0.0000E+00  0.0000E+00 -1.0026E-01  7.1054E-15  2.3454E-03  3.4159E+01
  1.3500E+01  1.1314E+02  6.4159E+01  6.5402E+01  0.0000E+00  0.0000E+00 -4.3027E-02 -1.0450E+00  0.0000E+00  0.0000E+00 -1.5445E-01 -1.4211E-14  2.3615E-03  5.2261E+01
  1.4250E+01  1.7312E+02  9.8175E+01  1.0008E+02  0.0000E+00  0.0000E+00 -6.6006E-02 -1.5967E+00  0.0000E+00  0.0000E+00 -2.3731E-01 -2.8422E-14  2.3713E-03  7.9965E+01
  1.5000E+01  2.6489E+02  1.5023E+02  1.5314E+02  0.0000E+00  0.0000E+00 -1.0116E-01 -2.4399E+00  0.0000E+00  0.0000E+00 -3.6393E-01 -2.8422E-14  2.3765E-03  1.2236E+02
  1.5750E+01  4.0532E+02  2.2989E+02  2.3433E+02  0.0000E+00  0.0000E+00 -1.5490E-01 -3.7302E+00  0.0000E+00  0.0000E+00 -5.5724E-01 -2.8422E-14  2.3780E-03  1.8724E+02
  1.6500E+01  6.2021E+02  3.5177E+02  3.5857E+02  0.0000E+00  0.0000E+00 -2.3710E-01 -5.7056E+00  0.0000E+00  0.0000E+00 -8.5239E-01  1.7053E-13  2.3772E-03  2.8652E+02
  1.7250E+01  9.4903E+02  5.3826E+02  5.4866E+02  0.0000E+00  0.0000E+00 -3.6280E-01 -8.7307E+00  0.0000E+00  0.0000E+00 -1.3034E+00  1.1369E-13  2.3756E-03  4.3843E+02
  1.8000E+01  1.4522E+03  8.2361E+02  8.3952E+02  0.0000E+00  0.0000E+00 -5.5507E-01 -1.3363E+01  0.0000E+00  0.0000E+00 -1.9934E+00 -2.2737E-13  2.3744E-03  6.7085E+02
  1.8750E+01  2.2220E+03  1.2602E+03  1.2846E+03  0.0000E+00  0.0000E+00 -8.4923E-01 -2.0454E+01  0.0000E+00  0.0000E+00 -3.0496E+00  2.2737E-13  2.3740E-03  1.0265E+03
  1.9500E+01  3.4000E+03  1.9283E+03  1.9655E+03  0.0000E+00  0.0000E+00 -1.2993E+00 -3.1308E+01  0.0000E+00  0.0000E+00 -4.6669E+00  0.0000E+00  2.3744E-03  1.5706E+03
  2.0250E+01  5.2025E+03  2.9505E+03  3.0075E+03  0.0000E+00  0.0000E+00 -1.9880E+00 -4.7916E+01  0.0000E+00  0.0000E+00 -7.1428E+00 -1.3642E-12  2.3750E-03  2.4033E+03
  2.1000E+01  7.9604E+03  4.5146E+03  4.6019E+03  0.0000E+00  0.0000E+00 -3.0419E+00 -7.3328E+01  0.0000E+00  0.0000E+00 -1.0932E+01 -9.0949E-13  2.3755E-03  3.6773E+03
  2.1750E+01  1.2180E+04  6.9080E+03  7.0415E+03  0.0000E+00  0.0000E+00 -4.6547E+00 -1.1221E+02  0.0000E+00  0.0000E+00 -1.6729E+01  1.8190E-12  2.3757E-03  5.6267E+03
  2.2500E+01  1.8638E+04  1.0570E+04  1.0775E+04  0.0000E+00  0.0000E+00 -7.1226E+00 -1.7168E+02  0.0000E+00  0.0000E+00 -2.5597E+01 -3.6380E-12  2.3757E-03  8.6096E+03
