 #  1.  time
 #  2.  Total Energy
 #  3.  Total dE/dt
 #  4.  Drive 1 term
 #  5.  Heat sources (nonlocal)
 #  6.  Collisional Dissipation
 #  7.  hyp_v dissipation
 #  8.  hyp_z dissipation
 #  9.  hyp_x/y dissipation
 #  10. nonlinearity
 #  11. [Poisson err]_z,vpar
 #  12. curvature + remaining terms (if any)
 #  13. (abs(10)+abs(11)+abs(12))/abs(4): test for conservation
 #  14. change in energy: (E(t)-E(t_last_energy_calc))/(dt*istep_energy)
#        1           2           3           4           5           6           7           8           9          10          11          12          13          14
  0.0000E+00  9.5450E-02 -1.7722E-02  0.0000E+00  0.0000E+00  0.0000E+00 -1.2185E-05 -1.4684E-02  0.0000E+00  0.0000E+00 -3.0255E-03  0.0000E+00  0.0000E+00  9.5450E-02
  1.0000E+00  1.4113E-01  8.4838E-02  1.1613E-01  0.0000E+00  0.0000E+00 -7.4096E-03 -2.2546E-02  0.0000E+00  0.0000E+00 -1.3397E-03  2.7756E-17  1.1535E-02  4.5681E-02
  2.0000E+00  2.6131E-01  1.5852E-01  2.1164E-01  0.0000E+00  0.0000E+00 -1.1674E-02 -4.0333E-02  0.0000E+00  0.0000E+00 -1.1102E-03  5.5511E-17  5.2458E-03  1.2017E-01
  3.0000E+00  4.6593E-01  2.5216E-01  3.3158E-01  0.0000E+00  0.0000E+00 -2.0082E-02 -5.8265E-02  0.0000E+00  0.0000E+00 -1.0779E-03  5.5511E-17  3.2508E-03  2.0462E-01
  4.0000E+00  7.6973E-01  3.6253E-01  5.0789E-01  0.0000E+00  0.0000E+00 -3.4763E-02 -1.0877E-01  0.0000E+00  0.0000E+00 -1.8232E-03 -5.5511E-17  3.5897E-03  3.0380E-01
  5.0000E+00  1.2143E+00  5.4077E-01  7.8332E-01  0.0000E+00  0.0000E+00 -5.4844E-02 -1.8506E-01  0.0000E+00  0.0000E+00 -2.6467E-03  1.1102E-16  3.3788E-03  4.4453E-01
  6.0000E+00  1.8853E+00  8.1734E-01  1.2041E+00  0.0000E+00  0.0000E+00 -8.2969E-02 -2.9997E-01  0.0000E+00  0.0000E+00 -3.7909E-03 -2.2204E-16  3.1484E-03  6.7105E-01
  7.0000E+00  2.8827E+00  1.1976E+00  1.8047E+00  0.0000E+00  0.0000E+00 -1.2731E-01 -4.7407E-01  0.0000E+00  0.0000E+00 -5.6950E-03  2.2204E-16  3.1557E-03  9.9741E-01
  8.0000E+00  4.3333E+00  1.7407E+00  2.6695E+00  0.0000E+00  0.0000E+00 -1.9553E-01 -7.2477E-01  0.0000E+00  0.0000E+00 -8.4854E-03 -2.2204E-16  3.1787E-03  1.4505E+00
  9.0000E+00  6.4690E+00  2.5984E+00  3.9931E+00  0.0000E+00  0.0000E+00 -2.9422E-01 -1.0876E+00  0.0000E+00  0.0000E+00 -1.2766E-02  8.8818E-16  3.1970E-03  2.1357E+00
  1.0000E+01  9.6979E+00  3.9603E+00  6.0388E+00  0.0000E+00  0.0000E+00 -4.3755E-01 -1.6215E+00  0.0000E+00  0.0000E+00 -1.9414E-02  8.8818E-16  3.2148E-03  3.2289E+00
  1.1000E+01  1.4633E+01  6.0560E+00  9.1661E+00  0.0000E+00  0.0000E+00 -6.5580E-01 -2.4247E+00  0.0000E+00  0.0000E+00 -2.9576E-02 -2.6645E-15  3.2267E-03  4.9352E+00
  1.2000E+01  2.2156E+01  9.1952E+00  1.3887E+01  0.0000E+00  0.0000E+00 -9.9338E-01 -3.6538E+00  0.0000E+00  0.0000E+00 -4.4876E-02  3.5527E-15  3.2314E-03  7.5234E+00
  1.3000E+01  3.3520E+01  1.3837E+01  2.0948E+01  0.0000E+00  0.0000E+00 -1.5092E+00 -5.5335E+00  0.0000E+00  0.0000E+00 -6.7783E-02  0.0000E+00  3.2358E-03  1.1364E+01
  1.4000E+01  5.0598E+01  2.0798E+01  3.1568E+01  0.0000E+00  0.0000E+00 -2.2844E+00 -8.3845E+00  0.0000E+00  0.0000E+00 -1.0181E-01 -7.1054E-15  3.2250E-03  1.7078E+01
  1.5000E+01  7.6322E+01  3.1397E+01  4.7659E+01  0.0000E+00  0.0000E+00 -3.4407E+00 -1.2669E+01  0.0000E+00  0.0000E+00 -1.5257E-01 -7.1054E-15  3.2012E-03  2.5724E+01
  1.6000E+01  1.1524E+02  4.7562E+01  7.2083E+01  0.0000E+00  0.0000E+00 -5.1790E+00 -1.9112E+01  0.0000E+00  0.0000E+00 -2.2951E-01 -7.1054E-15  3.1840E-03  3.8917E+01
  1.7000E+01  1.7420E+02  7.2031E+01  1.0904E+02  0.0000E+00  0.0000E+00 -7.8169E+00 -2.8846E+01  0.0000E+00  0.0000E+00 -3.4674E-01  0.0000E+00  3.1799E-03  5.8961E+01
  1.8000E+01  2.6341E+02  1.0891E+02  1.6484E+02  0.0000E+00  0.0000E+00 -1.1827E+01 -4.3581E+01  0.0000E+00  0.0000E+00 -5.2503E-01 -7.1054E-14  3.1850E-03  8.9214E+01
  1.9000E+01  3.9823E+02  1.6454E+02  2.4912E+02  0.0000E+00  0.0000E+00 -1.7900E+01 -6.5884E+01  0.0000E+00  0.0000E+00 -7.9515E-01 -8.5265E-14  3.1919E-03  1.3482E+02
  2.0000E+01  6.0192E+02  2.4862E+02  3.7649E+02  0.0000E+00  0.0000E+00 -2.7067E+01 -9.9601E+01  0.0000E+00  0.0000E+00 -1.2030E+00  0.0000E+00  3.1954E-03  2.0369E+02
  2.1000E+01  9.0977E+02  3.7582E+02  5.6910E+02  0.0000E+00  0.0000E+00 -4.0903E+01 -1.5056E+02  0.0000E+00  0.0000E+00 -1.8184E+00 -5.6843E-14  3.1952E-03  3.0785E+02
  2.2000E+01  1.3751E+03  5.6806E+02  8.6020E+02  0.0000E+00  0.0000E+00 -6.1813E+01 -2.2758E+02  0.0000E+00  0.0000E+00 -2.7475E+00  1.1369E-13  3.1941E-03  4.6535E+02
  2.3000E+01  2.0784E+03  8.5833E+02  1.2999E+03  0.0000E+00  0.0000E+00 -9.3430E+01 -3.4402E+02  0.0000E+00  0.0000E+00 -4.1514E+00 -2.2737E-13  3.1936E-03  7.0325E+02
  2.4000E+01  3.1409E+03  1.2968E+03  1.9643E+03  0.0000E+00  0.0000E+00 -1.4122E+02 -5.2000E+02  0.0000E+00  0.0000E+00 -6.2731E+00 -2.2737E-13  3.1936E-03  1.0625E+03
  2.5000E+01  4.7463E+03  1.9595E+03  2.9682E+03  0.0000E+00  0.0000E+00 -2.1340E+02 -7.8586E+02  0.0000E+00  0.0000E+00 -9.4796E+00  0.0000E+00  3.1937E-03  1.6054E+03
  2.6000E+01  7.1723E+03  2.9614E+03  4.4857E+03  0.0000E+00  0.0000E+00 -3.2246E+02 -1.1875E+03  0.0000E+00  0.0000E+00 -1.4326E+01 -9.0949E-13  3.1937E-03  2.4260E+03
  2.7000E+01  1.0839E+04  4.4758E+03  6.7793E+03  0.0000E+00  0.0000E+00 -4.8727E+02 -1.7945E+03  0.0000E+00  0.0000E+00 -2.1652E+01  0.0000E+00  3.1939E-03  3.6666E+03
  2.8000E+01  1.6381E+04  6.7643E+03  1.0245E+04  0.0000E+00  0.0000E+00 -7.3639E+02 -2.7118E+03  0.0000E+00  0.0000E+00 -3.2725E+01  0.0000E+00  3.1942E-03  5.5416E+03
  2.9000E+01  2.4755E+04  1.0222E+04  1.5483E+04  0.0000E+00  0.0000E+00 -1.1129E+03 -4.0983E+03  0.0000E+00  0.0000E+00 -4.9458E+01 -1.8190E-12  3.1943E-03  8.3747E+03
  3.0000E+01  3.7411E+04  1.5448E+04  2.3399E+04  0.0000E+00  0.0000E+00 -1.6819E+03 -6.1937E+03  0.0000E+00  0.0000E+00 -7.4742E+01  0.0000E+00  3.1943E-03  1.2656E+04
  3.1000E+01  5.6538E+04  2.3347E+04  3.5362E+04  0.0000E+00  0.0000E+00 -2.5418E+03 -9.3602E+03  0.0000E+00  0.0000E+00 -1.1295E+02 -3.6380E-12  3.1941E-03  1.9127E+04
  3.2000E+01  8.5443E+04  3.5283E+04  5.3440E+04  0.0000E+00  0.0000E+00 -3.8412E+03 -1.4146E+04  0.0000E+00  0.0000E+00 -1.7069E+02  0.0000E+00  3.1940E-03  2.8905E+04
  3.3000E+01  1.2913E+05  5.3321E+04  8.0761E+04  0.0000E+00  0.0000E+00 -5.8050E+03 -2.1378E+04  0.0000E+00  0.0000E+00 -2.5795E+02  2.9104E-11  3.1940E-03  4.3683E+04
  3.4000E+01  1.9514E+05  8.0580E+04  1.2205E+05  0.0000E+00  0.0000E+00 -8.7729E+03 -3.2307E+04  0.0000E+00  0.0000E+00 -3.8983E+02 -2.9104E-11  3.1940E-03  6.6015E+04
  3.5000E+01  2.9491E+05  1.2178E+05  1.8445E+05  0.0000E+00  0.0000E+00 -1.3258E+04 -4.8823E+04  0.0000E+00  0.0000E+00 -5.8913E+02 -1.4552E-11  3.1941E-03  9.9764E+04
  3.6000E+01  4.4567E+05  1.8403E+05  2.7875E+05  0.0000E+00  0.0000E+00 -2.0036E+04 -7.3784E+04  0.0000E+00  0.0000E+00 -8.9033E+02 -2.9104E-11  3.1941E-03  1.5077E+05
  3.7000E+01  6.7352E+05  2.7812E+05  4.2126E+05  0.0000E+00  0.0000E+00 -3.0279E+04 -1.1151E+05  0.0000E+00  0.0000E+00 -1.3455E+03 -5.8208E-11  3.1941E-03  2.2785E+05
  3.8000E+01  1.0179E+06  4.2032E+05  6.3662E+05  0.0000E+00  0.0000E+00 -4.5760E+04 -1.6851E+05  0.0000E+00  0.0000E+00 -2.0334E+03 -1.1642E-10  3.1941E-03  3.4434E+05
  3.9000E+01  1.5383E+06  6.3520E+05  9.6209E+05  0.0000E+00  0.0000E+00 -6.9155E+04 -2.5467E+05  0.0000E+00  0.0000E+00 -3.0730E+03  0.0000E+00  3.1941E-03  5.2038E+05
  4.0000E+01  2.3247E+06  9.5994E+05  1.4540E+06  0.0000E+00  0.0000E+00 -1.0451E+05 -3.8486E+05  0.0000E+00  0.0000E+00 -4.6441E+03  0.0000E+00  3.1941E-03  7.8643E+05
  4.1000E+01  3.5132E+06  1.4507E+06  2.1973E+06  0.0000E+00  0.0000E+00 -1.5794E+05 -5.8163E+05  0.0000E+00  0.0000E+00 -7.0183E+03  0.0000E+00  3.1941E-03  1.1885E+06
  4.2000E+01  5.3093E+06  2.1924E+06  3.3207E+06  0.0000E+00  0.0000E+00 -2.3869E+05 -8.7898E+05  0.0000E+00  0.0000E+00 -1.0606E+04 -4.6566E-10  3.1941E-03  1.7961E+06
  4.3000E+01  8.0236E+06  3.3132E+06  5.0184E+06  0.0000E+00  0.0000E+00 -3.6072E+05 -1.3284E+06  0.0000E+00  0.0000E+00 -1.6029E+04  9.3132E-10  3.1941E-03  2.7144E+06
  4.4000E+01  1.2126E+07  5.0071E+06  7.5840E+06  0.0000E+00  0.0000E+00 -5.4513E+05 -2.0075E+06  0.0000E+00  0.0000E+00 -2.4224E+04 -9.3132E-10  3.1941E-03  4.1021E+06
  4.5000E+01  1.8325E+07  7.5670E+06  1.1461E+07  0.0000E+00  0.0000E+00 -8.2383E+05 -3.0338E+06  0.0000E+00  0.0000E+00 -3.6608E+04 -9.3132E-10  3.1941E-03  6.1992E+06
  4.6000E+01  2.7694E+07  1.1436E+07  1.7321E+07  0.0000E+00  0.0000E+00 -1.2450E+06 -4.5848E+06  0.0000E+00  0.0000E+00 -5.5324E+04  0.0000E+00  3.1941E-03  9.3686E+06
  4.7000E+01  4.1852E+07  1.7282E+07  2.6176E+07  0.0000E+00  0.0000E+00 -1.8815E+06 -6.9288E+06  0.0000E+00  0.0000E+00 -8.3608E+04 -3.7253E-09  3.1941E-03  1.4158E+07
  4.8000E+01  6.3249E+07  2.6118E+07  3.9559E+07  0.0000E+00  0.0000E+00 -2.8435E+06 -1.0471E+07  0.0000E+00  0.0000E+00 -1.2635E+05 -1.1176E-08  3.1941E-03  2.1397E+07
  4.9000E+01  9.5584E+07  3.9470E+07  5.9783E+07  0.0000E+00  0.0000E+00 -4.2972E+06 -1.5825E+07  0.0000E+00  0.0000E+00 -1.9095E+05  0.0000E+00  3.1941E-03  3.2336E+07
  5.0000E+01  1.4445E+08  5.9649E+07  9.0347E+07  0.0000E+00  0.0000E+00 -6.4941E+06 -2.3915E+07  0.0000E+00  0.0000E+00 -2.8857E+05 -7.4506E-09  3.1941E-03  4.8867E+07
  5.1000E+01  2.1830E+08  9.0145E+07  1.3654E+08  0.0000E+00  0.0000E+00 -9.8142E+06 -3.6141E+07  0.0000E+00  0.0000E+00 -4.3611E+05  0.0000E+00  3.1941E-03  7.3851E+07
  5.2000E+01  3.2991E+08  1.3623E+08  2.0634E+08  0.0000E+00  0.0000E+00 -1.4832E+07 -5.4618E+07  0.0000E+00  0.0000E+00 -6.5907E+05 -2.9802E-08  3.1941E-03  1.1161E+08
  5.3000E+01  4.9858E+08  2.0588E+08  3.1183E+08  0.0000E+00  0.0000E+00 -2.2414E+07 -8.2542E+07  0.0000E+00  0.0000E+00 -9.9601E+05  2.9802E-08  3.1941E-03  1.6867E+08
  5.4000E+01  7.5347E+08  3.1114E+08  4.7126E+08  0.0000E+00  0.0000E+00 -3.3874E+07 -1.2474E+08  0.0000E+00  0.0000E+00 -1.5052E+06  5.9605E-08  3.1941E-03  2.5490E+08
  5.5000E+01  1.1387E+09  4.7020E+08  7.1219E+08  0.0000E+00  0.0000E+00 -5.1192E+07 -1.8852E+08  0.0000E+00  0.0000E+00 -2.2748E+06  1.1921E-07  3.1941E-03  3.8521E+08
  5.6000E+01  1.7208E+09  7.1059E+08  1.0763E+09  0.0000E+00  0.0000E+00 -7.7363E+07 -2.8489E+08  0.0000E+00  0.0000E+00 -3.4377E+06  2.3842E-07  3.1941E-03  5.8215E+08
  5.7000E+01  2.6006E+09  1.0739E+09  1.6265E+09  0.0000E+00  0.0000E+00 -1.1692E+08 -4.3055E+08  0.0000E+00  0.0000E+00 -5.1953E+06 -4.7684E-07  3.1941E-03  8.7977E+08
  5.8000E+01  3.9302E+09  1.6229E+09  2.4581E+09  0.0000E+00  0.0000E+00 -1.7669E+08 -6.5066E+08  0.0000E+00  0.0000E+00 -7.8514E+06  2.3842E-07  3.1941E-03  1.3296E+09
  5.9000E+01  5.9395E+09  2.4526E+09  3.7148E+09  0.0000E+00  0.0000E+00 -2.6702E+08 -9.8331E+08  0.0000E+00  0.0000E+00 -1.1865E+07  9.5367E-07  3.1941E-03  2.0093E+09
  6.0000E+01  8.9760E+09  3.7065E+09  5.6140E+09  0.0000E+00  0.0000E+00 -4.0353E+08 -1.4860E+09  0.0000E+00  0.0000E+00 -1.7932E+07  0.0000E+00  3.1941E-03  3.0365E+09
